Wavelength (nm),Reflectance (%)
448,25.45
452,25.93
456,26.4
460,26.88
464,27.44
468,27.69
472,27.92
476,28.24
480,28.71
484,29.17
488,29.47
492,29.79
496,30.39
500,31.1
504,31.74
508,32.08
512,32.53
516,32.8
520,33.14
524,33.55
528,33.8
532,33.88
536,34
540,34.32
544,34.44
548,34.57
552,34.81
556,34.81
560,34.84
564,34.91
568,34.87
572,34.75
576,34.82
580,34.88
584,34.68
588,34.59
592,34.52
596,34.25
600,34.08
604,33.93
608,33.77
612,33.59
616,33.33
620,33.01
624,32.67
628,32.42
632,32.25
636,32
640,31.52
644,31.03
648,30.58
652,30.07
656,29.76
660,29.34
664,28.88
668,28.4
672,27.89
676,27.46
680,27.12
684,26.76
688,26.38
692,26.06
696,25.86
700,25.44
704,25.25
708,24.9
712,24.75
716,24.4
720,24.25
724,24.11
728,23.76
732,23.58
736,23.61
740,23.65
744,23.67
748,23.78
752,23.82
756,23.73
760,23.73
764,23.84
768,23.93
772,24.07
776,24.12
780,24.05
784,24.07
788,24.14
792,24.17
796,24
800,23.89
804,23.96
808,23.98
812,23.84
816,23.84
820,23.95
824,23.81
828,23.22
832,22.75
836,22.44
840,22.16
844,21.78
848,21.15
852,20.5
856,20.07
860,19.92
864,19.95
868,19.95
872,19.56
876,19.3
880,19.15
884,19.29
888,19.24
892,19.19
896,19.11
900,18.96
904,18.73
908,18.91
912,19.33
916,19.69
920,19.76
924,19.88
928,20.08
932,20.11
936,20.19
940,20.43
944,20.77
948,20.82
952,20.96
956,21.14
960,21.38
964,21.56
968,21.83
972,22.07
976,22.04
980,22.16
984,22.39
988,22.5
992,22.6
996,22.57
1000,22.54
1004,22.56
1008,22.32
1012,22.38
1016,22.43
1020,22.21
1024,22.01
1028,21.91
1032,21.54
1036,21.32
1040,21.26
1044,20.97
1048,20.68
1052,20.55
1056,20.33
1060,20.18
1064,20.1
1068,19.96
1072,19.77
1076,19.8
1080,19.5
1084,19.23
1088,19.11
1092,19.14
1096,19.01
1100,19.09
1104,18.8
1108,18.76
1112,18.8
1116,18.72
1120,18.81
1124,18.82
1128,18.93
1132,19.07
1136,19.24
1140,19.41
1144,19.51
1148,19.6
1152,19.75
1156,19.9
1160,20.11
1164,20.35
1168,20.64
1172,20.65
1176,20.96
1180,21.3
1184,21.71
1188,22.08
1192,22.38
1196,22.58
1200,22.96
1204,23.38
1208,23.63
1212,24.07
1216,24.41
1220,24.83
1224,25.46
1228,25.96
1232,26.41
1236,26.84
1240,27.38
1244,27.97
1248,28.62
1252,29.35
1256,29.94
1260,30.46
1264,30.88
1268,31.51
1272,32.08
1276,32.76
1280,33.49
1284,34.08
1288,34.58
1292,35.15
1296,35.67
1300,36.34
1304,37.11
1308,37.85
1312,38.6
1316,39.3
1320,39.96
1324,40.49
1328,41.12
1332,41.96
1336,42.71
1340,43.32
1344,43.86
1348,44.47
1352,45
1356,45.38
1360,45.62
1364,44.82
1368,40.68
1372,34.14
1376,29.22
1380,30.34
1384,34.74
1388,38.22
1392,40.26
1396,42.74
1400,45.67
1404,48.31
1408,49.98
1412,51.26
1416,52.19
1420,52.9
1424,53.53
1428,54.19
1432,55.01
1436,56.08
1440,57.07
1444,57.98
1448,58.67
1452,59.38
1456,60.04
1460,60.67
1464,61.38
1468,62.14
1472,62.83
1476,63.46
1480,64.09
1484,64.7
1488,65.6
1492,66.51
1496,67.54
1500,68.37
1504,69.11
1508,69.64
1512,70.07
1516,70.53
1520,71.12
1524,71.76
1528,72.31
1532,72.86
1536,73.43
1540,73.96
1544,74.54
1548,75.04
1552,75.47
1556,75.83
1560,76.4
1564,76.78
1568,77.32
1572,77.85
1576,78.3
1580,78.7
1584,78.92
1588,79.29
1592,79.76
1596,80.31
1600,80.85
1604,81.23
1608,81.5
1612,81.6
1616,81.66
1620,81.97
1624,82.32
1628,82.73
1632,83.01
1636,83.06
1640,83.06
1644,83.04
1648,83.05
1652,83.16
1656,83.21
1660,83.21
1664,83.64
1668,84.25
1672,84.9
1676,85.5
1680,85.92
1684,86.24
1688,86.74
1692,87.13
1696,87.52
1700,87.9
1704,88.21
1708,88.71
1712,89.26
1716,89.73
1720,90.15
1724,90.53
1728,90.99
1732,91.48
1736,91.9
1740,92.37
1744,92.94
1748,93.47
1752,93.85
1756,94.07
1760,94.2
1764,94.29
1768,94.56
1772,94.92
1776,95.29
1780,95.59
1784,95.94
1788,96.37
1792,97.04
1796,97.64
1800,98.02
1804,98.28
1808,98.55
1812,98.89
1816,99.2
1820,99.46
1824,99.68
1828,99.8
1832,99.97
1836,100
1840,99.99
1844,99.87
1848,99.75
1852,99.62
1856,99.39
1860,98.94
1864,98.13
1868,97.1
1872,95.52
1876,93.29
1880,90.26
1884,86.24
1888,80.96
1892,74.95
1896,69.32
1900,65.04
1904,62.51
1908,61.55
1912,61.7
1916,62.54
1920,63.74
1924,64.78
1928,65.64
1932,66.39
1936,67.16
1940,67.95
1944,68.85
1948,69.73
1952,70.59
1956,71.43
1960,72.28
1964,73.2
1968,74.11
1972,74.93
1976,75.77
1980,76.63
1984,77.6
1988,78.69
1992,79.81
1996,80.93
2000,81.98
2004,83.06
2008,83.98
2012,84.83
2016,85.61
2020,86.46
2024,87.13
2028,87.79
2032,88.32
2036,89
2040,89.48
2044,89.85
2048,90.36
2052,90.78
2056,91.09
2060,91.2
2064,90.87
2068,89.98
2072,88.67
2076,87.26
2080,86.06
2084,85.31
2088,84.83
2092,84.58
2096,84.44
2100,84.47
2104,84.64
2108,84.99
2112,85.54
2116,86.17
2120,86.91
2124,87.72
2128,88.4
2132,88.98
2136,89.46
2140,89.87
2144,90.36
2148,90.63
2152,90.86
2156,90.92
2160,91.06
2164,91.12
2168,91.24
2172,91.36
2176,91.11
2180,90.66
2184,90.07
2188,89.39
2192,88.82
2196,88.12
2200,87.18
2204,86.26
2208,85.47
2212,84.75
2216,83.92
2220,82.72
2224,80.89
2228,78.31
2232,74.97
2236,71.06
2240,67.23
2244,64.46
2248,63.62
2252,64.22
2256,65.03
2260,65.16
2264,64.12
2268,62.04
2272,59.07
2276,55.21
2280,50.34
2284,44.35
2288,37.96
2292,31.67
2296,25.9
2300,20.4
2304,15.09
2308,9.97
2312,5.56
2316,2.29
2320,0.41
2324,0
2328,1.16
2332,3.93
2336,7.81
2340,11.94
2344,15.75
2348,18.6
2352,20.23
2356,20.54
2360,19.35
2364,16.71
2368,12.88
2372,8.88
2376,5.65
2380,4.12
2384,4.59
2388,6.86
2392,9.95
2396,13.03
2400,15.61
2404,17.86
2408,19.77
2412,21.13
2416,21.81
2420,21.78
2424,20.89
2428,19.39
2432,17.58
2436,16.09
2440,15.22
2444,15.05
2448,15.43
2452,16.15
2456,16.92
2460,17.47
2464,17.69
2468,17.47
2472,16.92
2476,16.53
2480,16.54
2484,16.69
